Wavelength (nm)	abs
252	0.344421971
253	0.345503939
254	0.346585906
255	0.347667873
256	0.34874984
257	0.349831807
258	0.350913774
259	0.353090625
260	0.357015447
261	0.360940269
262	0.364865091
263	0.368789913
264	0.373916637
265	0.379465948
266	0.385015258
267	0.391289003
268	0.397762591
269	0.4044159
270	0.411608371
271	0.418800842
272	0.430112317
273	0.442900417
274	0.450092888
275	0.457285359
276	0.466782626
277	0.478647837
278	0.483865808
279	0.487463865
280	0.491061922
281	0.494659979
282	0.498258036
283	0.502067872
284	0.505953483
285	0.509839093
286	0.513724703
287	0.51738882
288	0.5208431
289	0.52429738
290	0.527751661
291	0.531456579
292	0.535773519
293	0.540090459
294	0.544407399
295	0.548797199
296	0.554192463
297	0.559587727
298	0.564982992
299	0.570378256
300	0.57577352
301	0.581168783
302	0.587569512
303	0.596199749
304	0.604829985
305	0.612343039
306	0.619535511
307	0.626553118
308	0.633026707
309	0.639500295
310	0.645973884
311	0.652447472
312	0.65892106
313	0.665216142
314	0.671150568
315	0.677084995
316	0.683019421
317	0.690494831
318	0.698046743
319	0.705598656
320	0.714389184
321	0.724097745
322	0.730942918
323	0.737416507
324	0.742879773
325	0.746477831
326	0.750075888
327	0.752498474
328	0.754197321
329	0.752763198
330	0.751329075
331	0.749040065
332	0.746168176
333	0.743252572
334	0.739661801
335	0.73607103
336	0.732101388
337	0.727791735
338	0.723482081
339	0.719332718
340	0.716101389
341	0.709401934
342	0.702600477
343	0.698290823
344	0.685995741
345	0.673059494
346	0.660123246
347	0.647186999
348	0.634250751
349	0.617613228
350	0.601274431
351	0.589416507
352	0.576523975
353	0.562509403
354	0.551052208
355	0.540272609
356	0.529493009
357	0.517824521
358	0.504888273
359	0.493511224
360	0.482585906
361	0.466268965
362	0.445449294
363	0.432513046
364	0.426046744
365	0.410837272
366	0.393063138
367	0.372695195
368	0.356378256
369	0.339383721
370	0.321055852
371	0.307573155
372	0.294636907
373	0.281700659
374	0.271008492
375	0.262385541
376	0.250177891
377	0.238159676
378	0.231693374
379	0.225227071
380	0.218105031
381	0.210560405
382	0.204997563
383	0.199114139
384	0.191569512
385	0.185190642
386	0.179802663
387	0.172578619
388	0.165558583
389	0.161248929
390	0.156939275
391	0.152629622
392	0.148319968
393	0.144010314
394	0.13970066
395	0.135391006
396	0.131988455
397	0.129296288
398	0.126604121
399	0.123616871
400	0.119307217
401	0.114997563
402	0.111387363
403	0.108156033
404	0.104924703
405	0.101547654
406	0.097777162
407	0.09400667
408	0.090236179
409	0.086946561
410	0.083715232
411	0.080483902
412	0.076698838
413	0.072389184
414	0.06807953
415	0.063915596
416	0.060684266
417	0.057452937
418	0.054221607
419	0.050990277
420	0.047758947
421	0.044527617
422	0.04190831
423	0.040294466
424	0.038680623
425	0.03706678
426	0.035776434
427	0.034486088
428	0.033195742
429	0.031905395
430	0.031285359
431	0.030857672
432	0.030429986
433	0.030002299
434	0.029813592
435	0.029817235
436	0.029820878
437	0.029824521
438	0.029828164
439	0.030041643
440	0.030476616
441	0.030911589
442	0.031346561
443	0.031952026
444	0.033033993
445	0.03411596
446	0.035197927
447	0.036598048
448	0.038039457
449	0.039733446
450	0.041893738
451	0.044054029
452	0.046214321
453	0.047850022
454	0.049471151
455	0.05109228
456	0.053247715
457	0.055767448
458	0.05828718
459	0.060806913
460	0.063326646
461	0.065819317
462	0.068287701
463	0.070756085
464	0.073224469
465	0.075692854
466	0.078161238
467	0.080970605
468	0.083993556
469	0.087016507
470	0.090039457
471	0.093569512
472	0.097886452
473	0.102203392
474	0.106520332
475	0.111323003
476	0.118515475
477	0.125707946
478	0.132443829
479	0.138917417
480	0.148111103
481	0.157460223
482	0.166513046
483	0.175143283
484	0.188451116
485	0.199762591
486	0.210345469
487	0.22005403
488	0.233536725
489	0.249380077
490	0.258651479
491	0.266562833
492	0.274673337
493	0.283303574
494	0.290919603
495	0.297824521
496	0.303203132
497	0.306903886
498	0.310604641
499	0.314251965
500	0.317850022
501	0.32144808
502	0.327882809
503	0.334356397
504	0.340829986
505	0.349926525
506	0.36071341
507	0.370509403
508	0.381952026
509	0.400870058
510	0.422440185
511	0.451514868
512	0.471015779
513	0.493518512
514	0.533536726
515	0.552950205
516	0.577784449
517	0.61089556
518	0.6460176
519	0.687267144
520	0.729325431
521	0.768964776
522	0.806709766
523	0.839755304
524	0.867911952
525	0.877261072
526	0.885293859
527	0.885977526
528	0.882746197
529	0.863624156
530	0.84098299
531	0.802735267
532	0.743431077
533	0.686509402
534	0.630644194
535	0.578888274
536	0.527132354
537	0.475376435
538	0.381784451
539	0.337707946
540	0.304370971
541	0.254327254
542	0.229529439
543	0.19241104
544	0.168341825
545	0.15109228
546	0.133241642
547	0.113296288
548	0.098128346
549	0.087133082
550	0.076137818
551	0.065142554
552	0.055108067
553	0.047204
554	0.039299932
555	0.034747412
556	0.031156641
557	0.027915596
558	0.025762591
559	0.023609585
560	0.02145658
561	0.020795742
562	0.020368055
563	0.019940368
564	0.019512681
565	0.019164099
566	0.01885965
567	0.0185552
568	0.018250751
569	0.017946301
570	0.017641852
571	0.017365505
572	0.017099567
573	0.016833629
574	0.016567691
575	0.016301753
576	0.016035815
577	0.015769877
578	0.015766233
579	0.015769876
580	0.015773519
581	0.015777162
582	0.015780805
583	0.015784448
584	0.015788091
585	0.015791734
586	0.015795377
587	0.01579902
588	0.015802663
589	0.015806306
590	0.015809949
591	0.015813592
592	0.015817235
593	0.015820878
594	0.015824521
595	0.015828164
596	0.015831807
597	0.01583545
598	0.015839093
599	0.015842736
600	0.015846379
601	0.015850022
602	0.015853665
603	0.015857308
604	0.015860951
605	0.015864594
606	0.015868237
607	0.01587188
608	0.015875523
609	0.015879166
610	0.015882809
611	0.015886452
612	0.015890095
613	0.015893738
614	0.015897381
615	0.015901024
616	0.015904667
617	0.01590831
618	0.015911953
619	0.015915596
620	0.015919239
621	0.015922882
622	0.015926525
623	0.015930168
624	0.01593381
625	0.015937453
626	0.015941096
627	0.015944739
628	0.015948382
629	0.015952025
630	0.015896056
631	0.015801669
632	0.015707283
633	0.015612896
634	0.01551851
635	0.015424123
636	0.015329737
637	0.01523535
638	0.015140964
639	0.015046577
640	0.014952191
641	0.014857804
642	0.014763418
643	0.014669031
644	0.014574645
645	0.014480258
646	0.014385872
647	0.014291486
648	0.014199748
649	0.014203391
650	0.014207034
651	0.014210678
652	0.014214321
653	0.014217964
654	0.014221607
655	0.01422525
656	0.014228893
657	0.014232536
658	0.014236179
659	0.014239822
660	0.014243465
661	0.014247108
662	0.014250751
663	0.014254394
664	0.014258037
665	0.01426168
666	0.014265323
667	0.014268966
668	0.014272609
669	0.014276252
670	0.014279895
671	0.014283538
672	0.014287181
673	0.014290824
674	0.014294467
675	0.01429811
676	0.014301753
677	0.014305396
678	0.014309039
679	0.014312682
680	0.014316325
681	0.014319967
682	0.01432361
683	0.014327253
684	0.014330896
685	0.014334539
686	0.014338182
687	0.014341825
688	0.014345468
689	0.014349111
690	0.014352754
691	0.014356397
692	0.01436004
693	0.014363683
694	0.014367326
695	0.014370969
696	0.014374612
697	0.014378255
698	0.014381898
699	0.014385541
700	0.014389184
701	0.014392827
702	0.01439647
703	0.014400113
704	0.014403756
705	0.014407399
706	0.014411042
707	0.014414685
708	0.014418328
709	0.014421971
710	0.014425614
711	0.014429257
712	0.0144329
713	0.014436543
714	0.014440186
715	0.014482401
716	0.014612906
717	0.014743411
718	0.014873915
719	0.01500442
720	0.015134925
721	0.015265429
722	0.015395934
723	0.015526439
724	0.015656943
725	0.015787448
726	0.015917953
727	0.016048457
728	0.016178962
729	0.016309467
730	0.016439971
731	0.016570476
732	0.016700981
733	0.016831485
734	0.01696199
735	0.017092495
736	0.017222999
737	0.017353504
738	0.017484009
739	0.017614513
740	0.017745018
741	0.017875523
742	0.018006027
743	0.018136532
744	0.018086816
745	0.017910738
746	0.017734661
747	0.017558583
748	0.017382505
749	0.017206428
750	0.01703035
751	0.016854272
752	0.016678195
753	0.016502117
754	0.016326039
755	0.016149961
756	0.015973884
757	0.015797806
758	0.015621728
759	0.015445651
760	0.015269573
761	0.015093495
762	0.014917418
763	0.01474134
764	0.014622336
765	0.014625979
766	0.014629622
767	0.014633265
768	0.014636908
769	0.014640551
770	0.014644194
771	0.014647837
772	0.01465148
773	0.014655122
774	0.014658765
775	0.014662408
776	0.014666051
777	0.014669694
778	0.014673337
779	0.01467698
780	0.014680623
781	0.014684266
782	0.014687909
783	0.014691552
784	0.014695195
785	0.014698838
786	0.014702481
787	0.014706124
788	0.014709767
789	0.01471341
790	0.014717053
791	0.014720696
792	0.014724339
793	0.014727982
794	0.014731625
795	0.014735268
796	0.014738911
797	0.014742554
798	0.014746197
799	0.01474984
800	0.014753483
801	0.014757126
802	0.014760769
803	0.014764412
804	0.014768055
805	0.014771698
806	0.014775341
807	0.014778984
808	0.014782627
809	0.01478627
810	0.014789913
811	0.014793556
812	0.014797199
813	0.014800842
814	0.014832095
815	0.014892492
816	0.014952889
817	0.015013286
818	0.015073683
819	0.01513408
820	0.015194476
821	0.015254873
822	0.01531527
823	0.015375667
824	0.015436064
825	0.015496461
826	0.015556858
827	0.015617255
828	0.015677651
829	0.015738048
830	0.015798445
831	0.015858842
832	0.015919239
833	0.015979636
834	0.016040033
835	0.016100429
836	0.016160826
837	0.016221223
838	0.01628162
839	0.016342017
840	0.016402414
841	0.016462811
842	0.016523208
843	0.016583604
844	0.016644001
845	0.016704398
846	0.016742554
